Date,"Statistical Analysis System","SPSS","Haskell","SQLAlchemy","Sage","Lisp (bahasa pemrograman)","Lua (bahasa pemrograman)","Visual Basic for Applications","ActionScript","Elixir (bahasa pemrograman)"
2015-07,53,1340,86,0,83,0,113,245,137,0
2015-08,81,2085,117,0,206,0,119,562,379,0
2015-09,103,2909,150,0,170,0,125,645,221,0
2015-10,160,2756,138,0,165,0,163,620,342,0
2015-11,127,2598,115,0,212,0,119,527,597,0
2015-12,146,2242,94,0,120,0,113,413,332,0
2016-01,112,2364,142,0,115,0,116,686,409,0
2016-02,79,2359,108,0,89,0,215,741,406,0
2016-03,126,2919,99,0,81,0,281,673,420,0
2016-04,139,2802,90,0,79,0,217,716,383,0
2016-05,78,3290,85,0,91,0,144,604,354,0
2016-06,67,1947,80,0,39,0,164,384,243,0
2016-07,84,1376,99,0,72,0,124,252,167,0
2016-08,72,1953,105,0,117,0,157,488,250,0
2016-09,137,2561,118,0,116,0,140,566,279,0
2016-10,140,2534,138,0,128,0,192,709,336,0
2016-11,125,2162,114,0,138,0,179,439,360,0
2016-12,98,1739,88,0,82,0,158,486,283,0
2017-01,92,1826,74,0,78,0,158,715,320,0
2017-02,128,2085,130,0,113,0,179,786,336,0
2017-03,137,2817,112,0,340,0,185,907,390,0
2017-04,155,2619,68,0,158,0,187,651,374,0
2017-05,269,2808,86,0,119,0,220,827,370,0
2017-06,117,1883,53,0,56,0,123,575,196,0
2017-07,192,2186,74,0,163,0,179,786,230,0
2017-08,186,2318,133,0,161,0,214,1069,333,0
2017-09,175,3125,60,0,431,0,175,1238,306,0
2017-10,233,2838,85,0,108,0,172,1293,504,0
2017-11,245,2050,123,0,128,0,184,734,330,0
2017-12,183,1560,84,0,69,0,148,696,202,0
2018-01,145,1845,88,0,85,0,180,931,779,0
2018-02,132,1275,65,0,97,0,195,637,525,0
2018-03,242,1819,108,0,185,0,212,834,381,0
2018-04,346,1704,84,0,128,0,178,771,329,0
2018-05,256,1706,81,0,77,0,186,844,303,0
2018-06,117,855,55,0,64,0,182,236,104,0
2018-07,194,1541,89,0,67,0,281,478,253,0
2018-08,185,1112,70,0,66,0,325,441,287,0
2018-09,242,1676,100,0,69,0,319,607,318,0
2018-10,247,1647,99,0,74,0,353,791,425,0
2018-11,369,1719,88,0,113,0,792,674,306,0
2018-12,234,1440,88,0,68,0,365,590,245,68
2019-01,172,1441,95,0,87,0,333,547,354,94
2019-02,188,1364,81,0,99,0,292,581,309,99
2019-03,264,2035,124,0,140,0,399,665,323,128
2019-04,236,1801,89,0,98,0,411,564,298,137
2019-05,215,1518,90,0,109,0,367,456,267,149
2019-06,157,1227,158,0,45,0,283,358,111,119
2019-07,190,1569,70,0,52,0,359,501,450,183
2019-08,254,1155,104,0,66,0,374,627,430,221
2019-09,307,1601,88,0,89,0,392,567,451,223
2019-10,438,1454,121,0,72,0,394,825,485,243
2019-11,403,1226,90,0,74,0,371,711,478,170
2019-12,289,975,60,0,60,0,355,604,264,191
2020-01,279,866,76,0,52,0,429,664,611,126
2020-02,255,1009,79,0,84,0,353,521,478,141
2020-03,313,1232,86,0,142,0,328,725,573,213
2020-04,335,1376,64,16,122,38,409,764,564,163
2020-05,235,831,72,14,47,56,265,530,276,108
2020-06,203,2217,58,14,62,77,227,524,225,109
2020-07,164,1786,72,15,38,46,336,350,209,116
2020-08,129,912,59,7,45,81,272,304,236,130
2020-09,214,1374,76,11,54,91,233,690,473,151
2020-10,267,1488,91,24,49,123,288,580,345,152
2020-11,337,1439,67,25,69,157,219,1038,385,137
2020-12,205,1517,56,28,56,105,229,1022,450,2114
2021-01,230,1445,86,17,46,157,257,584,663,829
2021-02,171,1315,107,13,70,150,231,423,456,152
2021-03,205,1801,74,27,183,96,277,643,598,160
2021-04,186,1276,52,13,129,120,237,429,202,110
2021-05,105,906,51,10,154,55,158,246,108,81
2021-06,125,1610,45,23,351,121,229,598,222,95
2021-07,163,1468,79,22,78,70,272,395,188,1125
2021-08,109,1105,65,31,67,130,317,365,578,1428
2021-09,200,1601,129,21,120,165,350,346,625,350
2021-10,181,1500,123,45,59,186,332,452,429,158
2021-11,217,1451,85,38,60,177,275,638,446,95
2021-12,97,1199,184,49,37,117,253,622,502,66
2022-01,124,1036,158,19,45,79,347,352,632,66
2022-02,47,732,103,15,30,95,284,389,551,82
2022-03,111,1126,75,31,102,101,310,344,849,55
2022-04,114,949,65,61,40,57,266,227,293,53
2022-05,58,926,81,82,33,47,240,227,180,37
2022-06,68,1342,88,68,34,62,201,296,257,46
2022-07,77,896,50,23,57,51,191,264,253,47
2022-08,93,855,52,22,42,71,245,248,639,38
2022-09,168,1129,56,32,63,108,227,469,673,54
2022-10,116,1103,57,27,63,104,252,259,758,61
2022-11,159,1283,81,28,58,152,232,351,664,48
2022-12,91,919,89,42,67,102,192,443,494,40
2023-01,76,811,87,24,64,63,179,282,709,60
2023-02,95,802,71,12,54,86,241,255,490,55
2023-03,184,913,100,33,53,94,247,301,576,47
2023-04,70,447,64,6,36,68,215,243,193,46
2023-05,358,992,52,16,24,104,249,228,314,66
2023-06,119,1057,60,25,38,101,326,271,168,33
2023-07,63,877,221,10,47,99,287,191,148,30
2023-08,69,829,162,13,70,96,284,184,440,45
2023-09,102,747,162,13,34,112,249,429,311,167
2023-10,83,952,101,12,27,139,226,260,315,85
2023-11,125,962,112,14,29,130,249,307,276,81
2023-12,64,925,124,10,39,100,241,248,214,69
2024-01,89,1027,114,23,29,94,242,248,241,66
2024-02,67,852,86,6,29,187,202,136,211,62
2024-03,158,1968,69,9,29,132,248,173,268,142
2024-04,122,1545,56,2,27,96,233,143,112,156
2024-05,169,2657,69,18,33,104,238,179,86,171
2024-06,125,2107,48,5,34,61,217,192,89,129
2024-07,117,1766,68,17,21,63,274,163,61,121
2024-08,80,1042,107,13,51,105,202,135,104,110
2024-09,73,1253,94,10,20,75,198,153,132,71
